TITLE	
DATA TYPE	
ORIGIN	JASCO
OWNER	
DATE	12/07/08
TIME	11:41:31
SPECTROMETER/DATA SYSTEM	JASCO Corp., V-570, Rev. 1.00
RESOLUTION	
DELTAX	-2
XUNITS	NANOMETERS
YUNITS	TRANSMITTANCE
FIRSTX	1500.0000
LASTX	300.0000
NPOINTS	601
FIRSTY	0.88267
MAXY	0.88597
MINY	0.06427
XYDATA
1500.0000	88.267
1498.0000	88.273
1496.0000	88.339
1494.0000	88.203
1492.0000	88.372
1490.0000	88.395
1488.0000	88.335
1486.0000	88.457
1484.0000	88.443
1482.0000	88.419
1480.0000	88.289
1478.0000	88.484
1476.0000	88.428
1474.0000	88.597
1472.0000	88.547
1470.0000	88.514
1468.0000	88.375
1466.0000	88.519
1464.0000	88.531
1462.0000	88.403
1460.0000	88.479
1458.0000	88.543
1456.0000	88.459
1454.0000	88.328
1452.0000	88.385
1450.0000	88.369
1448.0000	88.262
1446.0000	88.349
1444.0000	88.243
1442.0000	88.19
1440.0000	88.246
1438.0000	88.197
1436.0000	88.016
1434.0000	88.114
1432.0000	87.99
1430.0000	87.924
1428.0000	87.837
1426.0000	87.962
1424.0000	87.776
1422.0000	87.592
1420.0000	87.585
1418.0000	87.576
1416.0000	87.488
1414.0000	87.329
1412.0000	87.249
1410.0000	87.208
1408.0000	86.976
1406.0000	87.05
1404.0000	86.88
1402.0000	86.827
1400.0000	86.583
1398.0000	86.597
1396.0000	86.385
1394.0000	86.352
1392.0000	86.246
1390.0000	86.053
1388.0000	85.997
1386.0000	85.777
1384.0000	85.678
1382.0000	85.58
1380.0000	85.494
1378.0000	85.435
1376.0000	85.299
1374.0000	85.211
1372.0000	85.029
1370.0000	85.061
1368.0000	84.89
1366.0000	84.869
1364.0000	84.805
1362.0000	84.795
1360.0000	84.667
1358.0000	84.623
1356.0000	84.688
1354.0000	84.661
1352.0000	84.575
1350.0000	84.504
1348.0000	84.56
1346.0000	84.45
1344.0000	84.48
1342.0000	84.398
1340.0000	84.421
1338.0000	84.449
1336.0000	84.484
1334.0000	84.35
1332.0000	84.385
1330.0000	84.311
1328.0000	84.417
1326.0000	84.341
1324.0000	84.33
1322.0000	84.245
1320.0000	84.342
1318.0000	84.272
1316.0000	84.155
1314.0000	84.257
1312.0000	84.195
1310.0000	84.144
1308.0000	84.129
1306.0000	84.105
1304.0000	84.03
1302.0000	84.025
1300.0000	84.055
1298.0000	84.089
1296.0000	83.976
1294.0000	84.024
1292.0000	84.052
1290.0000	83.943
1288.0000	83.894
1286.0000	83.933
1284.0000	83.957
1282.0000	83.882
1280.0000	83.921
1278.0000	83.898
1276.0000	83.87
1274.0000	83.722
1272.0000	83.84
1270.0000	83.821
1268.0000	83.819
1266.0000	83.774
1264.0000	83.778
1262.0000	83.72
1260.0000	83.716
1258.0000	83.716
1256.0000	83.722
1254.0000	83.724
1252.0000	83.706
1250.0000	83.696
1248.0000	83.619
1246.0000	83.671
1244.0000	83.636
1242.0000	83.612
1240.0000	83.672
1238.0000	83.676
1236.0000	83.607
1234.0000	83.573
1232.0000	83.567
1230.0000	83.625
1228.0000	83.594
1226.0000	83.579
1224.0000	83.632
1222.0000	83.558
1220.0000	83.46
1218.0000	83.499
1216.0000	83.565
1214.0000	83.493
1212.0000	83.486
1210.0000	83.478
1208.0000	83.433
1206.0000	83.438
1204.0000	83.451
1202.0000	83.468
1200.0000	83.386
1198.0000	83.398
1196.0000	83.353
1194.0000	83.342
1192.0000	83.275
1190.0000	83.285
1188.0000	83.236
1186.0000	83.171
1184.0000	83.214
1182.0000	83.194
1180.0000	83.135
1178.0000	83.014
1176.0000	83.059
1174.0000	82.967
1172.0000	82.955
1170.0000	82.92
1168.0000	82.941
1166.0000	82.869
1164.0000	82.8
1162.0000	82.797
1160.0000	82.785
1158.0000	82.767
1156.0000	82.674
1154.0000	82.674
1152.0000	82.546
1150.0000	82.593
1148.0000	82.543
1146.0000	82.471
1144.0000	82.424
1142.0000	82.392
1140.0000	82.298
1138.0000	82.189
1136.0000	82.248
1134.0000	82.199
1132.0000	82.193
1130.0000	82.132
1128.0000	82.08
1126.0000	82.034
1124.0000	82
1122.0000	81.896
1120.0000	81.879
1118.0000	81.91
1116.0000	81.793
1114.0000	81.733
1112.0000	81.68
1110.0000	81.644
1108.0000	81.588
1106.0000	81.608
1104.0000	81.612
1102.0000	81.532
1100.0000	81.472
1098.0000	81.502
1096.0000	81.434
1094.0000	81.359
1092.0000	81.276
1090.0000	81.312
1088.0000	81.191
1086.0000	81.114
1084.0000	81.161
1082.0000	81.091
1080.0000	81.067
1078.0000	81.042
1076.0000	80.932
1074.0000	80.91
1072.0000	80.897
1070.0000	80.839
1068.0000	80.769
1066.0000	80.703
1064.0000	80.674
1062.0000	80.578
1060.0000	80.479
1058.0000	80.453
1056.0000	80.417
1054.0000	80.311
1052.0000	80.284
1050.0000	80.268
1048.0000	80.161
1046.0000	80.147
1044.0000	80.053
1042.0000	79.984
1040.0000	80.011
1038.0000	79.877
1036.0000	79.806
1034.0000	79.708
1032.0000	79.678
1030.0000	79.633
1028.0000	79.556
1026.0000	79.489
1024.0000	79.407
1022.0000	79.337
1020.0000	79.245
1018.0000	79.188
1016.0000	79.111
1014.0000	78.988
1012.0000	78.997
1010.0000	78.841
1008.0000	78.789
1006.0000	78.69
1004.0000	78.624
1002.0000	78.555
1000.0000	78.442
998.0000	78.347
996.0000	78.16
994.0000	78.05
992.0000	78.034
990.0000	77.937
988.0000	77.837
986.0000	77.761
984.0000	77.616
982.0000	77.474
980.0000	77.404
978.0000	77.269
976.0000	77.092
974.0000	77.087
972.0000	76.946
970.0000	76.808
968.0000	76.522
966.0000	76.58
964.0000	76.408
962.0000	76.27
960.0000	76.138
958.0000	75.983
956.0000	75.836
954.0000	75.767
952.0000	75.601
950.0000	75.388
948.0000	75.293
946.0000	75.04
944.0000	74.905
942.0000	74.662
940.0000	74.561
938.0000	74.4
936.0000	74.363
934.0000	74.108
932.0000	73.913
930.0000	73.607
928.0000	73.556
926.0000	73.283
924.0000	73.174
922.0000	72.966
920.0000	72.724
918.0000	72.43
916.0000	72.38
914.0000	72.097
912.0000	71.87
910.0000	71.703
908.0000	71.44
906.0000	71.178
904.0000	70.99
902.0000	70.767
900.0000	70.502
898.0000	70.283
896.0000	70.114
894.0000	69.849
892.0000	69.474
890.0000	69.357
888.0000	69.078
886.0000	68.968
884.0000	68.86
882.0000	68.436
880.0000	68.061
878.0000	68.038
876.0000	67.617
874.0000	67.407
872.0000	67.24
870.0000	66.997
868.0000	66.726
866.0000	66.64
864.0000	66.411
862.0000	66.012
860.0000	66.421
858.0000	65.994
856.0000	65.372
854.0000	65.551
852.0000	65.918
850.0000	65.613
848.0000	64.783
846.0000	66.021
844.0000	65.763
842.0000	65.762
840.0000	66.092
838.0000	65.675
836.0000	65.484
834.0000	65.807
832.0000	65.547
830.0000	65.85
828.0000	65.563
826.0000	65.604
824.0000	65.401
822.0000	65.515
820.0000	65.555
818.0000	66.197
816.0000	65.829
814.0000	66.002
812.0000	66.074
810.0000	66.456
808.0000	66.354
806.0000	66.302
804.0000	66.245
802.0000	66.664
800.0000	66.384
798.0000	67.081
796.0000	66.766
794.0000	67.018
792.0000	67.23
790.0000	67.59
788.0000	67.141
786.0000	67.737
784.0000	67.604
782.0000	67.889
780.0000	67.882
778.0000	67.913
776.0000	68.185
774.0000	68.318
772.0000	68.164
770.0000	68.655
768.0000	69.031
766.0000	68.882
764.0000	69.129
762.0000	68.982
760.0000	69.174
758.0000	69.194
756.0000	69.063
754.0000	69.304
752.0000	69.617
750.0000	69.875
748.0000	69.76
746.0000	69.932
744.0000	70.015
742.0000	70.15
740.0000	69.82
738.0000	70.29
736.0000	70.222
734.0000	70.268
732.0000	70.477
730.0000	70.434
728.0000	70.498
726.0000	70.743
724.0000	70.621
722.0000	70.807
720.0000	70.758
718.0000	70.925
716.0000	70.996
714.0000	71.064
712.0000	71.107
710.0000	71.177
708.0000	71.132
706.0000	71.245
704.0000	71.194
702.0000	71.33
700.0000	71.514
698.0000	71.185
696.0000	71.383
694.0000	71.362
692.0000	71.355
690.0000	71.521
688.0000	71.855
686.0000	71.644
684.0000	71.941
682.0000	72.122
680.0000	72.196
678.0000	72.164
676.0000	72.315
674.0000	72.23
672.0000	72.548
670.0000	72.49
668.0000	72.419
666.0000	72.574
664.0000	72.72
662.0000	72.608
660.0000	72.613
658.0000	72.668
656.0000	72.837
654.0000	72.778
652.0000	72.709
650.0000	72.976
648.0000	73.053
646.0000	72.882
644.0000	72.968
642.0000	73.157
640.0000	73.228
638.0000	73.197
636.0000	73.189
634.0000	73.32
632.0000	73.289
630.0000	73.343
628.0000	73.526
626.0000	73.531
624.0000	73.449
622.0000	73.569
620.0000	73.515
618.0000	73.769
616.0000	73.623
614.0000	73.738
612.0000	73.596
610.0000	73.688
608.0000	73.851
606.0000	73.762
604.0000	74.061
602.0000	73.759
600.0000	74.028
598.0000	73.963
596.0000	73.895
594.0000	73.915
592.0000	73.999
590.0000	74.173
588.0000	74.003
586.0000	74.069
584.0000	74.239
582.0000	74.106
580.0000	74.17
578.0000	74.182
576.0000	74.136
574.0000	74.345
572.0000	74.139
570.0000	74.225
568.0000	74.289
566.0000	74.322
564.0000	74.437
562.0000	74.176
560.0000	74.439
558.0000	74.299
556.0000	74.207
554.0000	74.378
552.0000	74.384
550.0000	74.531
548.0000	74.344
546.0000	74.654
544.0000	74.465
542.0000	74.464
540.0000	74.5
538.0000	74.569
536.0000	74.441
534.0000	74.651
532.0000	74.754
530.0000	74.607
528.0000	74.756
526.0000	74.8
524.0000	74.581
522.0000	74.782
520.0000	74.581
518.0000	74.813
516.0000	74.8
514.0000	74.939
512.0000	74.957
510.0000	74.82
508.0000	75.014
506.0000	74.998
504.0000	74.935
502.0000	75.019
500.0000	75.352
498.0000	75.208
496.0000	75.129
494.0000	75.297
492.0000	75.318
490.0000	75.544
488.0000	75.725
486.0000	76.053
484.0000	76.126
482.0000	76.515
480.0000	76.573
478.0000	76.759
476.0000	76.924
474.0000	76.957
472.0000	77.073
470.0000	77.087
468.0000	77.17
466.0000	77.593
464.0000	77.804
462.0000	77.669
460.0000	77.817
458.0000	78.206
456.0000	78.096
454.0000	78.349
452.0000	78.461
450.0000	78.793
448.0000	78.905
446.0000	78.727
444.0000	78.966
442.0000	79.187
440.0000	79.343
438.0000	79.743
436.0000	79.555
434.0000	79.685
432.0000	79.993
430.0000	79.924
428.0000	79.556
426.0000	79.67
424.0000	79.787
422.0000	79.398
420.0000	79.71
418.0000	80.059
416.0000	79.474
414.0000	79.872
412.0000	80.076
410.0000	79.584
408.0000	79.86
406.0000	79.554
404.0000	79.888
402.0000	80.007
400.0000	80.013
398.0000	79.586
396.0000	79.805
394.0000	79.874
392.0000	80.735
390.0000	80.099
388.0000	80.71
386.0000	80.2
384.0000	80.562
382.0000	80.954
380.0000	81.01
378.0000	81.682
376.0000	80.718
374.0000	81.001
372.0000	81.576
370.0000	82.834
368.0000	82.299
366.0000	82.33
364.0000	82.542
362.0000	82.083
360.0000	81.391
358.0000	82.822
356.0000	82.449
354.0000	81.657
352.0000	82.591
350.0000	81.338
348.0000	81.648
346.0000	82.29
344.0000	79.423
342.0000	79.356
340.0000	79.45
338.0000	79.441
336.0000	75.93
334.0000	75.265
332.0000	73.919
330.0000	72.259
328.0000	70.533
326.0000	67.253
324.0000	64.137
322.0000	61.098
320.0000	56.936
318.0000	52.197
316.0000	47.107
314.0000	41.812
312.0000	35.533
310.0000	29.388
308.0000	23.791
306.0000	18.313
304.0000	13.436
302.0000	9.148
300.0000	6.427
