TITLE	
DATA TYPE	
ORIGIN	JASCO
OWNER	
DATE	12/06/28
TIME	16:41:15
SPECTROMETER/DATA SYSTEM	JASCO Corp., V-570, Rev. 1.00
RESOLUTION	
DELTAX	-2
XUNITS	NANOMETERS
YUNITS	TRANSMITTANCE
FIRSTX	1500.0000
LASTX	300.0000
NPOINTS	601
FIRSTY	0.82206
MAXY	0.95358
MINY	0.82130
XYDATA
1500.0000	82.2062
1498.0000	82.1584
1496.0000	82.1818
1494.0000	82.1607
1492.0000	82.2031
1490.0000	82.1305
1488.0000	82.1487
1486.0000	82.1549
1484.0000	82.1979
1482.0000	82.1661
1480.0000	82.1994
1478.0000	82.1791
1476.0000	82.1958
1474.0000	82.1936
1472.0000	82.1712
1470.0000	82.1649
1468.0000	82.1804
1466.0000	82.1653
1464.0000	82.1858
1462.0000	82.1928
1460.0000	82.1535
1458.0000	82.1717
1456.0000	82.1351
1454.0000	82.1933
1452.0000	82.1869
1450.0000	82.2026
1448.0000	82.202
1446.0000	82.2341
1444.0000	82.229
1442.0000	82.2885
1440.0000	82.2794
1438.0000	82.3409
1436.0000	82.3389
1434.0000	82.3284
1432.0000	82.3276
1430.0000	82.3154
1428.0000	82.3251
1426.0000	82.3866
1424.0000	82.4148
1422.0000	82.454
1420.0000	82.4531
1418.0000	82.4961
1416.0000	82.5317
1414.0000	82.5493
1412.0000	82.5644
1410.0000	82.5755
1408.0000	82.6443
1406.0000	82.7209
1404.0000	82.7939
1402.0000	82.8237
1400.0000	82.8236
1398.0000	82.8792
1396.0000	82.9325
1394.0000	82.994
1392.0000	83.0347
1390.0000	83.0794
1388.0000	83.1389
1386.0000	83.2068
1384.0000	83.2256
1382.0000	83.242
1380.0000	83.2911
1378.0000	83.3437
1376.0000	83.3823
1374.0000	83.399
1372.0000	83.4181
1370.0000	83.4728
1368.0000	83.5768
1366.0000	83.6485
1364.0000	83.6512
1362.0000	83.6453
1360.0000	83.6943
1358.0000	83.7601
1356.0000	83.793
1354.0000	83.7928
1352.0000	83.814
1350.0000	83.8439
1348.0000	83.8939
1346.0000	83.8982
1344.0000	83.8885
1342.0000	83.8915
1340.0000	83.9367
1338.0000	83.9574
1336.0000	83.9921
1334.0000	84.0371
1332.0000	84.0461
1330.0000	84.1006
1328.0000	84.123
1326.0000	84.1843
1324.0000	84.1969
1322.0000	84.2128
1320.0000	84.2128
1318.0000	84.2538
1316.0000	84.2669
1314.0000	84.3098
1312.0000	84.3517
1310.0000	84.3722
1308.0000	84.3855
1306.0000	84.3961
1304.0000	84.4217
1302.0000	84.4605
1300.0000	84.4722
1298.0000	84.4749
1296.0000	84.5127
1294.0000	84.5481
1292.0000	84.5939
1290.0000	84.6106
1288.0000	84.6238
1286.0000	84.664
1284.0000	84.7076
1282.0000	84.7159
1280.0000	84.7363
1278.0000	84.7223
1276.0000	84.7602
1274.0000	84.7837
1272.0000	84.8095
1270.0000	84.8492
1268.0000	84.878
1266.0000	84.8872
1264.0000	84.9438
1262.0000	84.9152
1260.0000	84.9565
1258.0000	84.9424
1256.0000	85.0078
1254.0000	85.0166
1252.0000	85.0724
1250.0000	85.0755
1248.0000	85.0998
1246.0000	85.1068
1244.0000	85.1542
1242.0000	85.1708
1240.0000	85.2019
1238.0000	85.2021
1236.0000	85.2197
1234.0000	85.2393
1232.0000	85.2667
1230.0000	85.2986
1228.0000	85.3033
1226.0000	85.3478
1224.0000	85.3532
1222.0000	85.3832
1220.0000	85.407
1218.0000	85.462
1216.0000	85.4787
1214.0000	85.5124
1212.0000	85.5169
1210.0000	85.5582
1208.0000	85.5841
1206.0000	85.5964
1204.0000	85.6005
1202.0000	85.639
1200.0000	85.6669
1198.0000	85.6974
1196.0000	85.716
1194.0000	85.7169
1192.0000	85.7451
1190.0000	85.7783
1188.0000	85.813
1186.0000	85.8426
1184.0000	85.8767
1182.0000	85.8973
1180.0000	85.937
1178.0000	85.9375
1176.0000	85.9544
1174.0000	85.9673
1172.0000	85.9956
1170.0000	86.0131
1168.0000	86.0706
1166.0000	86.0879
1164.0000	86.1146
1162.0000	86.131
1160.0000	86.1696
1158.0000	86.1867
1156.0000	86.2188
1154.0000	86.2322
1152.0000	86.269
1150.0000	86.3009
1148.0000	86.3237
1146.0000	86.3313
1144.0000	86.3588
1142.0000	86.3846
1140.0000	86.4293
1138.0000	86.4394
1136.0000	86.4595
1134.0000	86.4797
1132.0000	86.5162
1130.0000	86.5401
1128.0000	86.576
1126.0000	86.6004
1124.0000	86.6262
1122.0000	86.6574
1120.0000	86.6799
1118.0000	86.7013
1116.0000	86.7318
1114.0000	86.7793
1112.0000	86.804
1110.0000	86.8076
1108.0000	86.8165
1106.0000	86.8347
1104.0000	86.8662
1102.0000	86.909
1100.0000	86.9505
1098.0000	86.9583
1096.0000	86.989
1094.0000	86.99
1092.0000	87.0188
1090.0000	87.0291
1088.0000	87.0453
1086.0000	87.0495
1084.0000	87.0786
1082.0000	87.118
1080.0000	87.1575
1078.0000	87.2011
1076.0000	87.22
1074.0000	87.2377
1072.0000	87.2481
1070.0000	87.2651
1068.0000	87.2712
1066.0000	87.2761
1064.0000	87.3207
1062.0000	87.3449
1060.0000	87.3761
1058.0000	87.3869
1056.0000	87.4149
1054.0000	87.4264
1052.0000	87.4594
1050.0000	87.4882
1048.0000	87.5262
1046.0000	87.528
1044.0000	87.5534
1042.0000	87.5829
1040.0000	87.6048
1038.0000	87.5922
1036.0000	87.5958
1034.0000	87.6139
1032.0000	87.6414
1030.0000	87.6542
1028.0000	87.6839
1026.0000	87.7106
1024.0000	87.7234
1022.0000	87.7463
1020.0000	87.7592
1018.0000	87.7785
1016.0000	87.7962
1014.0000	87.8138
1012.0000	87.8236
1010.0000	87.8475
1008.0000	87.8504
1006.0000	87.8735
1004.0000	87.8785
1002.0000	87.9049
1000.0000	87.9275
998.0000	87.9589
996.0000	87.9847
994.0000	88.0044
992.0000	87.9996
990.0000	88.0105
988.0000	88.0191
986.0000	88.0522
984.0000	88.0702
982.0000	88.0811
980.0000	88.0961
978.0000	88.1045
976.0000	88.1366
974.0000	88.1384
972.0000	88.1569
970.0000	88.1647
968.0000	88.2062
966.0000	88.2151
964.0000	88.2293
962.0000	88.2211
960.0000	88.2435
958.0000	88.2824
956.0000	88.2959
954.0000	88.293
952.0000	88.302
950.0000	88.3235
948.0000	88.3495
946.0000	88.3618
944.0000	88.3989
942.0000	88.4291
940.0000	88.4743
938.0000	88.4522
936.0000	88.4622
934.0000	88.444
932.0000	88.469
930.0000	88.4908
928.0000	88.5197
926.0000	88.5363
924.0000	88.5751
922.0000	88.5948
920.0000	88.583
918.0000	88.6261
916.0000	88.6307
914.0000	88.66
912.0000	88.6732
910.0000	88.6531
908.0000	88.6881
906.0000	88.6745
904.0000	88.6808
902.0000	88.6863
900.0000	88.7128
898.0000	88.7227
896.0000	88.7516
894.0000	88.7474
892.0000	88.7666
890.0000	88.7821
888.0000	88.7682
886.0000	88.7956
884.0000	88.787
882.0000	88.8177
880.0000	88.8324
878.0000	88.8523
876.0000	88.8731
874.0000	88.9143
872.0000	88.8724
870.0000	88.8996
868.0000	88.9368
866.0000	88.9147
864.0000	88.9541
862.0000	88.9869
860.0000	89.4477
858.0000	89.4907
856.0000	89.4566
854.0000	89.2916
852.0000	89.1463
850.0000	88.929
848.0000	89.0556
846.0000	89.1914
844.0000	89.3866
842.0000	89.3873
840.0000	89.3461
838.0000	89.2958
836.0000	89.1688
834.0000	89.1668
832.0000	89.134
830.0000	89.1906
828.0000	89.2513
826.0000	89.3876
824.0000	89.3634
822.0000	89.342
820.0000	89.468
818.0000	89.4519
816.0000	89.4361
814.0000	89.4538
812.0000	89.48
810.0000	89.55
808.0000	89.5229
806.0000	89.465
804.0000	89.5473
802.0000	89.4914
800.0000	89.6018
798.0000	89.5717
796.0000	89.6129
794.0000	89.6919
792.0000	89.6139
790.0000	89.627
788.0000	89.5652
786.0000	89.677
784.0000	89.6862
782.0000	89.8186
780.0000	89.8292
778.0000	89.8628
776.0000	89.7729
774.0000	89.7766
772.0000	89.7936
770.0000	89.8457
768.0000	89.8789
766.0000	89.9309
764.0000	89.9249
762.0000	90.0046
760.0000	90.0915
758.0000	90.14
756.0000	90.0923
754.0000	90.1253
752.0000	90.148
750.0000	90.1629
748.0000	90.236
746.0000	90.2716
744.0000	90.258
742.0000	90.1985
740.0000	90.3383
738.0000	90.3389
736.0000	90.3859
734.0000	90.4226
732.0000	90.4742
730.0000	90.4992
728.0000	90.5504
726.0000	90.4767
724.0000	90.4915
722.0000	90.4946
720.0000	90.5916
718.0000	90.6665
716.0000	90.7178
714.0000	90.7451
712.0000	90.7794
710.0000	90.8644
708.0000	90.9106
706.0000	90.9231
704.0000	90.9258
702.0000	90.9018
700.0000	90.9407
698.0000	90.9596
696.0000	91.0177
694.0000	91.0599
692.0000	91.0888
690.0000	91.0901
688.0000	91.1115
686.0000	91.122
684.0000	91.1684
682.0000	91.1762
680.0000	91.2232
678.0000	91.2738
676.0000	91.3331
674.0000	91.3503
672.0000	91.3898
670.0000	91.4293
668.0000	91.4384
666.0000	91.4785
664.0000	91.5173
662.0000	91.5436
660.0000	91.5671
658.0000	91.5625
656.0000	91.5751
654.0000	91.6258
652.0000	91.6676
650.0000	91.6766
648.0000	91.7179
646.0000	91.7255
644.0000	91.8175
642.0000	91.8116
640.0000	91.8481
638.0000	91.877
636.0000	91.8965
634.0000	91.9468
632.0000	92.0249
630.0000	92.0458
628.0000	92.0535
626.0000	92.0694
624.0000	92.1088
622.0000	92.1759
620.0000	92.1682
618.0000	92.2154
616.0000	92.2056
614.0000	92.2511
612.0000	92.302
610.0000	92.3624
608.0000	92.3729
606.0000	92.4147
604.0000	92.4049
602.0000	92.5081
600.0000	92.4925
598.0000	92.5261
596.0000	92.5027
594.0000	92.557
592.0000	92.6167
590.0000	92.6542
588.0000	92.7081
586.0000	92.7009
584.0000	92.7456
582.0000	92.7915
580.0000	92.8898
578.0000	92.9263
576.0000	92.9004
574.0000	92.8855
572.0000	92.9235
570.0000	92.9985
568.0000	93.0634
566.0000	93.0888
564.0000	93.0743
562.0000	93.1026
560.0000	93.1581
558.0000	93.2223
556.0000	93.2457
554.0000	93.2879
552.0000	93.3417
550.0000	93.3382
548.0000	93.368
546.0000	93.3826
544.0000	93.4265
542.0000	93.478
540.0000	93.557
538.0000	93.5749
536.0000	93.6745
534.0000	93.6081
532.0000	93.6708
530.0000	93.6576
528.0000	93.666
526.0000	93.7491
524.0000	93.8545
522.0000	93.9083
520.0000	93.9305
518.0000	93.9238
516.0000	93.9413
514.0000	93.9741
512.0000	94.0306
510.0000	94.0745
508.0000	94.1941
506.0000	94.2036
504.0000	94.2942
502.0000	94.2283
500.0000	94.295
498.0000	94.2878
496.0000	94.3411
494.0000	94.4011
492.0000	94.4311
490.0000	94.489
488.0000	94.5321
486.0000	94.5558
484.0000	94.6114
482.0000	94.6547
480.0000	94.7322
478.0000	94.7405
476.0000	94.7996
474.0000	94.8485
472.0000	94.8805
470.0000	94.8603
468.0000	94.8525
466.0000	94.973
464.0000	94.9882
462.0000	95.0192
460.0000	95.0238
458.0000	95.0185
456.0000	95.0585
454.0000	95.0414
452.0000	95.0654
450.0000	95.1352
448.0000	95.232
446.0000	95.2818
444.0000	95.3575
442.0000	95.3224
440.0000	95.3037
438.0000	95.305
436.0000	95.2721
434.0000	95.2726
432.0000	95.235
430.0000	95.1892
428.0000	95.3176
426.0000	95.351
424.0000	95.2636
422.0000	95.2099
420.0000	95.0507
418.0000	95.2337
416.0000	95.2928
414.0000	95.289
412.0000	95.1825
410.0000	95.016
408.0000	95.0299
406.0000	94.9728
404.0000	95.1022
402.0000	95.0096
400.0000	95.0513
398.0000	95.0673
396.0000	95.0879
394.0000	95.0106
392.0000	94.8507
390.0000	94.8656
388.0000	94.9545
386.0000	94.9471
384.0000	94.8039
382.0000	94.7839
380.0000	94.7943
378.0000	94.7643
376.0000	94.5913
374.0000	94.6111
372.0000	94.7413
370.0000	94.6605
368.0000	94.8571
366.0000	95.0142
364.0000	94.9821
362.0000	94.5393
360.0000	94.6771
358.0000	94.6249
356.0000	94.5731
354.0000	94.4091
352.0000	94.2273
350.0000	94.2276
348.0000	94.5694
346.0000	94.4715
344.0000	94.4867
342.0000	94.3039
340.0000	94.2173
338.0000	94.1004
336.0000	93.9085
334.0000	93.8891
332.0000	93.7859
330.0000	94.0506
328.0000	93.9314
326.0000	93.7201
324.0000	93.6194
322.0000	93.1904
320.0000	92.938
318.0000	92.5333
316.0000	92.3191
314.0000	91.9309
312.0000	91.565
310.0000	91.0026
308.0000	90.9082
306.0000	90.2003
304.0000	89.6085
302.0000	89.1117
300.0000	88.8585
