TITLE	
DATA TYPE	
ORIGIN	JASCO
OWNER	
DATE	12/07/03
TIME	14:57:00
SPECTROMETER/DATA SYSTEM	JASCO Corp., V-570, Rev. 1.00
RESOLUTION	
DELTAX	-2
XUNITS	NANOMETERS
YUNITS	TRANSMITTANCE
FIRSTX	1500.0000
LASTX	300.0000
NPOINTS	601
FIRSTY	0.86211
MAXY	0.86406
MINY	0.05206
XYDATA
1500.0000	86.211
1498.0000	86.28
1496.0000	86.244
1494.0000	86.253
1492.0000	86.31
1490.0000	86.33
1488.0000	86.33
1486.0000	86.283
1484.0000	86.406
1482.0000	86.28
1480.0000	86.399
1478.0000	86.4
1476.0000	86.289
1474.0000	86.337
1472.0000	86.317
1470.0000	86.346
1468.0000	86.397
1466.0000	86.35
1464.0000	86.137
1462.0000	86.231
1460.0000	86.181
1458.0000	86.217
1456.0000	86.161
1454.0000	86.081
1452.0000	86.021
1450.0000	86.117
1448.0000	85.975
1446.0000	86.045
1444.0000	85.993
1442.0000	85.928
1440.0000	85.839
1438.0000	85.875
1436.0000	85.729
1434.0000	85.806
1432.0000	85.732
1430.0000	85.747
1428.0000	85.534
1426.0000	85.603
1424.0000	85.558
1422.0000	85.546
1420.0000	85.477
1418.0000	85.396
1416.0000	85.188
1414.0000	85.26
1412.0000	85.257
1410.0000	85.173
1408.0000	85.044
1406.0000	85.033
1404.0000	84.754
1402.0000	84.806
1400.0000	84.783
1398.0000	84.805
1396.0000	84.643
1394.0000	84.509
1392.0000	84.421
1390.0000	84.437
1388.0000	84.319
1386.0000	84.323
1384.0000	84.184
1382.0000	84.15
1380.0000	83.983
1378.0000	84.047
1376.0000	83.971
1374.0000	83.908
1372.0000	83.88
1370.0000	83.694
1368.0000	83.672
1366.0000	83.633
1364.0000	83.674
1362.0000	83.706
1360.0000	83.646
1358.0000	83.545
1356.0000	83.549
1354.0000	83.566
1352.0000	83.524
1350.0000	83.517
1348.0000	83.443
1346.0000	83.442
1344.0000	83.518
1342.0000	83.479
1340.0000	83.415
1338.0000	83.445
1336.0000	83.444
1334.0000	83.369
1332.0000	83.448
1330.0000	83.403
1328.0000	83.39
1326.0000	83.306
1324.0000	83.329
1322.0000	83.274
1320.0000	83.306
1318.0000	83.225
1316.0000	83.199
1314.0000	83.29
1312.0000	83.191
1310.0000	83.156
1308.0000	83.174
1306.0000	83.172
1304.0000	83.061
1302.0000	83.077
1300.0000	83.074
1298.0000	82.997
1296.0000	83.098
1294.0000	83.004
1292.0000	83.049
1290.0000	83.017
1288.0000	82.992
1286.0000	82.843
1284.0000	82.956
1282.0000	82.937
1280.0000	82.934
1278.0000	82.906
1276.0000	82.828
1274.0000	82.889
1272.0000	82.873
1270.0000	82.818
1268.0000	82.811
1266.0000	82.843
1264.0000	82.783
1262.0000	82.824
1260.0000	82.759
1258.0000	82.774
1256.0000	82.757
1254.0000	82.672
1252.0000	82.655
1250.0000	82.697
1248.0000	82.686
1246.0000	82.628
1244.0000	82.641
1242.0000	82.624
1240.0000	82.608
1238.0000	82.636
1236.0000	82.55
1234.0000	82.565
1232.0000	82.609
1230.0000	82.499
1228.0000	82.539
1226.0000	82.517
1224.0000	82.523
1222.0000	82.532
1220.0000	82.517
1218.0000	82.486
1216.0000	82.507
1214.0000	82.43
1212.0000	82.467
1210.0000	82.445
1208.0000	82.307
1206.0000	82.415
1204.0000	82.375
1202.0000	82.396
1200.0000	82.347
1198.0000	82.294
1196.0000	82.273
1194.0000	82.243
1192.0000	82.243
1190.0000	82.103
1188.0000	82.186
1186.0000	82.171
1184.0000	82.081
1182.0000	82.057
1180.0000	81.997
1178.0000	82.002
1176.0000	81.965
1174.0000	81.909
1172.0000	81.932
1170.0000	81.899
1168.0000	81.778
1166.0000	81.787
1164.0000	81.731
1162.0000	81.82
1160.0000	81.68
1158.0000	81.677
1156.0000	81.639
1154.0000	81.578
1152.0000	81.523
1150.0000	81.497
1148.0000	81.495
1146.0000	81.334
1144.0000	81.409
1142.0000	81.359
1140.0000	81.385
1138.0000	81.307
1136.0000	81.23
1134.0000	81.305
1132.0000	81.159
1130.0000	81.12
1128.0000	81.144
1126.0000	81.042
1124.0000	80.917
1122.0000	80.934
1120.0000	80.915
1118.0000	80.893
1116.0000	80.854
1114.0000	80.775
1112.0000	80.8
1110.0000	80.724
1108.0000	80.642
1106.0000	80.648
1104.0000	80.594
1102.0000	80.475
1100.0000	80.498
1098.0000	80.471
1096.0000	80.477
1094.0000	80.387
1092.0000	80.343
1090.0000	80.287
1088.0000	80.257
1086.0000	80.18
1084.0000	80.164
1082.0000	80.062
1080.0000	80.048
1078.0000	79.992
1076.0000	79.913
1074.0000	79.962
1072.0000	79.88
1070.0000	79.721
1068.0000	79.734
1066.0000	79.721
1064.0000	79.575
1062.0000	79.637
1060.0000	79.523
1058.0000	79.439
1056.0000	79.438
1054.0000	79.433
1052.0000	79.282
1050.0000	79.257
1048.0000	79.161
1046.0000	79.125
1044.0000	79.068
1042.0000	78.952
1040.0000	78.968
1038.0000	78.862
1036.0000	78.732
1034.0000	78.758
1032.0000	78.638
1030.0000	78.618
1028.0000	78.568
1026.0000	78.4
1024.0000	78.379
1022.0000	78.33
1020.0000	78.166
1018.0000	78.188
1016.0000	78.074
1014.0000	77.989
1012.0000	77.93
1010.0000	77.762
1008.0000	77.705
1006.0000	77.669
1004.0000	77.533
1002.0000	77.414
1000.0000	77.38
998.0000	77.286
996.0000	77.199
994.0000	77.126
992.0000	76.934
990.0000	76.943
988.0000	76.766
986.0000	76.698
984.0000	76.551
982.0000	76.466
980.0000	76.373
978.0000	76.27
976.0000	76.211
974.0000	75.993
972.0000	75.95
970.0000	75.773
968.0000	75.526
966.0000	75.501
964.0000	75.32
962.0000	75.25
960.0000	75.061
958.0000	74.897
956.0000	74.762
954.0000	74.638
952.0000	74.468
950.0000	74.398
948.0000	74.25
946.0000	74.053
944.0000	73.834
942.0000	73.709
940.0000	73.485
938.0000	73.406
936.0000	73.106
934.0000	72.915
932.0000	72.791
930.0000	72.736
928.0000	72.557
926.0000	72.338
924.0000	72.053
922.0000	71.931
920.0000	71.709
918.0000	71.497
916.0000	71.358
914.0000	71.116
912.0000	70.834
910.0000	70.715
908.0000	70.427
906.0000	70.328
904.0000	70.06
902.0000	69.722
900.0000	69.357
898.0000	69.25
896.0000	69.042
894.0000	68.852
892.0000	68.66
890.0000	68.354
888.0000	68.165
886.0000	67.89
884.0000	67.623
882.0000	67.459
880.0000	67.168
878.0000	66.719
876.0000	66.785
874.0000	66.45
872.0000	66.336
870.0000	65.978
868.0000	65.785
866.0000	65.619
864.0000	65.348
862.0000	65.142
860.0000	65.414
858.0000	65.431
856.0000	64.779
854.0000	65.734
852.0000	65.961
850.0000	64.388
848.0000	64.467
846.0000	64.993
844.0000	64.422
842.0000	64.912
840.0000	64.65
838.0000	64.218
836.0000	64.55
834.0000	64.565
832.0000	64.773
830.0000	65.043
828.0000	64.712
826.0000	64.325
824.0000	64.503
822.0000	65.091
820.0000	64.728
818.0000	64.883
816.0000	64.487
814.0000	65.046
812.0000	65.067
810.0000	65.112
808.0000	65.445
806.0000	65.326
804.0000	65.322
802.0000	65.592
800.0000	65.648
798.0000	66.145
796.0000	66.08
794.0000	65.834
792.0000	66.151
790.0000	66.217
788.0000	66.396
786.0000	66.028
784.0000	66.489
782.0000	67.072
780.0000	66.709
778.0000	67.067
776.0000	67.265
774.0000	67.355
772.0000	66.975
770.0000	67.608
768.0000	67.571
766.0000	67.68
764.0000	67.708
762.0000	67.992
760.0000	68.075
758.0000	67.929
756.0000	68.375
754.0000	68.554
752.0000	68.271
750.0000	68.425
748.0000	68.626
746.0000	68.613
744.0000	68.795
742.0000	68.686
740.0000	68.908
738.0000	69.015
736.0000	69.163
734.0000	69.21
732.0000	69.284
730.0000	69.401
728.0000	69.414
726.0000	69.381
724.0000	69.469
722.0000	69.578
720.0000	69.777
718.0000	69.757
716.0000	69.765
714.0000	69.808
712.0000	70.166
710.0000	69.769
708.0000	69.882
706.0000	69.964
704.0000	70.093
702.0000	70.006
700.0000	70.194
698.0000	70.108
696.0000	70.337
694.0000	70.183
692.0000	70.402
690.0000	70.494
688.0000	70.53
686.0000	70.669
684.0000	70.393
682.0000	70.731
680.0000	70.701
678.0000	70.74
676.0000	71.048
674.0000	71.191
672.0000	71.316
670.0000	71.163
668.0000	71.252
666.0000	71.272
664.0000	71.245
662.0000	71.609
660.0000	71.395
658.0000	71.633
656.0000	71.518
654.0000	71.418
652.0000	71.558
650.0000	71.487
648.0000	71.85
646.0000	71.688
644.0000	71.715
642.0000	71.78
640.0000	71.809
638.0000	71.879
636.0000	71.834
634.0000	72.051
632.0000	71.933
630.0000	72.015
628.0000	72.058
626.0000	72.187
624.0000	72.153
622.0000	72.167
620.0000	72.053
618.0000	72.25
616.0000	72.269
614.0000	72.173
612.0000	72.392
610.0000	72.382
608.0000	72.391
606.0000	72.443
604.0000	72.476
602.0000	72.484
600.0000	72.444
598.0000	72.526
596.0000	72.584
594.0000	72.697
592.0000	72.532
590.0000	72.687
588.0000	72.661
586.0000	72.647
584.0000	72.639
582.0000	72.58
580.0000	72.761
578.0000	72.86
576.0000	72.811
574.0000	72.758
572.0000	72.736
570.0000	72.719
568.0000	72.86
566.0000	72.966
564.0000	72.752
562.0000	72.865
560.0000	72.959
558.0000	72.787
556.0000	72.846
554.0000	72.848
552.0000	72.869
550.0000	72.938
548.0000	72.833
546.0000	73.012
544.0000	73.035
542.0000	72.984
540.0000	72.907
538.0000	73.076
536.0000	73.149
534.0000	72.935
532.0000	72.961
530.0000	72.927
528.0000	72.993
526.0000	73.134
524.0000	72.962
522.0000	73.059
520.0000	72.913
518.0000	73.273
516.0000	72.869
514.0000	73.043
512.0000	73.229
510.0000	73.147
508.0000	73.058
506.0000	73.118
504.0000	73.183
502.0000	73.438
500.0000	73.425
498.0000	73.26
496.0000	73.294
494.0000	73.602
492.0000	73.425
490.0000	73.426
488.0000	73.691
486.0000	73.947
484.0000	73.87
482.0000	74.01
480.0000	74.174
478.0000	74.117
476.0000	74.233
474.0000	74.285
472.0000	74.403
470.0000	74.672
468.0000	74.826
466.0000	74.614
464.0000	74.749
462.0000	74.877
460.0000	74.652
458.0000	74.722
456.0000	74.966
454.0000	75.374
452.0000	75.2
450.0000	75.203
448.0000	75.401
446.0000	75.607
444.0000	75.563
442.0000	75.696
440.0000	76.141
438.0000	75.883
436.0000	76.065
434.0000	76.02
432.0000	76.115
430.0000	76.125
428.0000	75.666
426.0000	76.021
424.0000	75.747
422.0000	75.869
420.0000	75.619
418.0000	75.806
416.0000	75.828
414.0000	76.541
412.0000	75.826
410.0000	75.905
408.0000	75.805
406.0000	75.812
404.0000	75.679
402.0000	75.554
400.0000	75.064
398.0000	75.653
396.0000	75.478
394.0000	75.649
392.0000	75.536
390.0000	75.32
388.0000	75.532
386.0000	75.206
384.0000	74.895
382.0000	75.399
380.0000	75.714
378.0000	75.632
376.0000	75.08
374.0000	76.058
372.0000	75.677
370.0000	76.094
368.0000	75.567
366.0000	75.472
364.0000	76.271
362.0000	75.211
360.0000	75.181
358.0000	75.061
356.0000	75.064
354.0000	75.881
352.0000	74.699
350.0000	74.206
348.0000	73.194
346.0000	73.181
344.0000	71.547
342.0000	72.95
340.0000	70.481
338.0000	70.24
336.0000	68.051
334.0000	68.067
332.0000	66.726
330.0000	63.932
328.0000	62.007
326.0000	59.28
324.0000	57.036
322.0000	54.767
320.0000	49.796
318.0000	45.478
316.0000	40.82
314.0000	35.875
312.0000	30.316
310.0000	25.532
308.0000	19.987
306.0000	15.014
304.0000	10.976
302.0000	7.688
300.0000	5.206
