TITLE	
DATA TYPE	
ORIGIN	JASCO
OWNER	
DATE	12/07/03
TIME	14:32:58
SPECTROMETER/DATA SYSTEM	JASCO Corp., V-570, Rev. 1.00
RESOLUTION	
DELTAX	-2
XUNITS	NANOMETERS
YUNITS	TRANSMITTANCE
FIRSTX	1500.0000
LASTX	300.0000
NPOINTS	601
FIRSTY	0.92507
MAXY	0.92960
MINY	0.07205
XYDATA
1500.0000	92.5074
1498.0000	92.6885
1496.0000	92.486
1494.0000	92.4936
1492.0000	92.5002
1490.0000	92.6918
1488.0000	92.5448
1486.0000	92.5253
1484.0000	92.6828
1482.0000	92.5081
1480.0000	92.5038
1478.0000	92.4866
1476.0000	92.5776
1474.0000	92.4309
1472.0000	92.4741
1470.0000	92.7855
1468.0000	92.5365
1466.0000	92.5768
1464.0000	92.4518
1462.0000	92.6946
1460.0000	92.5578
1458.0000	92.5082
1456.0000	92.5037
1454.0000	92.5763
1452.0000	92.42
1450.0000	92.4326
1448.0000	92.6017
1446.0000	92.348
1444.0000	92.461
1442.0000	92.5808
1440.0000	92.6279
1438.0000	92.4112
1436.0000	92.6018
1434.0000	92.5755
1432.0000	92.3414
1430.0000	92.5465
1428.0000	92.5058
1426.0000	92.4082
1424.0000	92.4479
1422.0000	92.5151
1420.0000	92.6317
1418.0000	92.5138
1416.0000	92.6025
1414.0000	92.5941
1412.0000	92.5237
1410.0000	92.4373
1408.0000	92.5346
1406.0000	92.6159
1404.0000	92.3198
1402.0000	92.512
1400.0000	92.5197
1398.0000	92.5022
1396.0000	92.4012
1394.0000	92.5364
1392.0000	92.4951
1390.0000	92.3727
1388.0000	92.3849
1386.0000	92.518
1384.0000	92.4349
1382.0000	92.3502
1380.0000	92.3466
1378.0000	92.535
1376.0000	92.332
1374.0000	92.4645
1372.0000	92.4354
1370.0000	92.4763
1368.0000	92.3365
1366.0000	92.5124
1364.0000	92.6291
1362.0000	92.4827
1360.0000	92.5035
1358.0000	92.443
1356.0000	92.392
1354.0000	92.2996
1352.0000	92.5004
1350.0000	92.5254
1348.0000	92.295
1346.0000	92.3625
1344.0000	92.5617
1342.0000	92.4857
1340.0000	92.2321
1338.0000	92.5574
1336.0000	92.5479
1334.0000	92.3644
1332.0000	92.5034
1330.0000	92.5534
1328.0000	92.3865
1326.0000	92.2855
1324.0000	92.5223
1322.0000	92.5172
1320.0000	92.4258
1318.0000	92.4045
1316.0000	92.4714
1314.0000	92.3763
1312.0000	92.2449
1310.0000	92.4828
1308.0000	92.4597
1306.0000	92.3364
1304.0000	92.4421
1302.0000	92.524
1300.0000	92.435
1298.0000	92.3316
1296.0000	92.4185
1294.0000	92.3787
1292.0000	92.3525
1290.0000	92.4582
1288.0000	92.3446
1286.0000	92.3266
1284.0000	92.3662
1282.0000	92.4321
1280.0000	92.3662
1278.0000	92.3808
1276.0000	92.4275
1274.0000	92.4388
1272.0000	92.386
1270.0000	92.3408
1268.0000	92.5228
1266.0000	92.3546
1264.0000	92.3521
1262.0000	92.3794
1260.0000	92.378
1258.0000	92.3634
1256.0000	92.3882
1254.0000	92.473
1252.0000	92.3349
1250.0000	92.3671
1248.0000	92.3879
1246.0000	92.4135
1244.0000	92.3796
1242.0000	92.3935
1240.0000	92.4559
1238.0000	92.4146
1236.0000	92.3379
1234.0000	92.4595
1232.0000	92.3669
1230.0000	92.3515
1228.0000	92.2903
1226.0000	92.5177
1224.0000	92.2678
1222.0000	92.31
1220.0000	92.4119
1218.0000	92.4137
1216.0000	92.3246
1214.0000	92.2518
1212.0000	92.4744
1210.0000	92.3396
1208.0000	92.3754
1206.0000	92.3058
1204.0000	92.2807
1202.0000	92.3388
1200.0000	92.3469
1198.0000	92.3191
1196.0000	92.2904
1194.0000	92.3843
1192.0000	92.3519
1190.0000	92.3141
1188.0000	92.3796
1186.0000	92.2615
1184.0000	92.1689
1182.0000	92.314
1180.0000	92.3838
1178.0000	92.2397
1176.0000	92.3398
1174.0000	92.2598
1172.0000	92.2526
1170.0000	92.236
1168.0000	92.3184
1166.0000	92.3235
1164.0000	92.3082
1162.0000	92.2642
1160.0000	92.2952
1158.0000	92.3515
1156.0000	92.3147
1154.0000	92.3935
1152.0000	92.2823
1150.0000	92.4153
1148.0000	92.2581
1146.0000	92.3007
1144.0000	92.3005
1142.0000	92.2627
1140.0000	92.2684
1138.0000	92.3523
1136.0000	92.4337
1134.0000	92.2938
1132.0000	92.3348
1130.0000	92.3058
1128.0000	92.1772
1126.0000	92.1793
1124.0000	92.2716
1122.0000	92.2574
1120.0000	92.4113
1118.0000	92.2386
1116.0000	92.2805
1114.0000	92.2859
1112.0000	92.2004
1110.0000	92.2039
1108.0000	92.2465
1106.0000	92.2185
1104.0000	92.2184
1102.0000	92.3217
1100.0000	92.1819
1098.0000	92.1242
1096.0000	92.2298
1094.0000	92.2573
1092.0000	92.2968
1090.0000	92.2502
1088.0000	92.2642
1086.0000	92.2343
1084.0000	92.1424
1082.0000	92.2108
1080.0000	92.1506
1078.0000	92.2808
1076.0000	92.1185
1074.0000	92.2389
1072.0000	92.2386
1070.0000	92.2144
1068.0000	92.2502
1066.0000	92.1707
1064.0000	92.263
1062.0000	92.2347
1060.0000	92.1301
1058.0000	92.2399
1056.0000	92.1341
1054.0000	92.1002
1052.0000	92.2157
1050.0000	92.2828
1048.0000	92.2298
1046.0000	92.1961
1044.0000	92.2159
1042.0000	92.1542
1040.0000	92.0858
1038.0000	92.1061
1036.0000	92.3356
1034.0000	92.0604
1032.0000	92.1011
1030.0000	92.2494
1028.0000	92.0869
1026.0000	92.1122
1024.0000	92.1971
1022.0000	92.2907
1020.0000	92.1441
1018.0000	92.1072
1016.0000	92.1803
1014.0000	92.1463
1012.0000	92.0252
1010.0000	92.1979
1008.0000	92.2325
1006.0000	92.0592
1004.0000	92.1806
1002.0000	92.16
1000.0000	92.1083
998.0000	92.0515
996.0000	92.2075
994.0000	92.1922
992.0000	92.0451
990.0000	92.118
988.0000	92.0929
986.0000	92.1352
984.0000	92.0964
982.0000	92.1476
980.0000	92.156
978.0000	92.0789
976.0000	92.1275
974.0000	92.1043
972.0000	92.1372
970.0000	91.9651
968.0000	92.0545
966.0000	92.0822
964.0000	91.9863
962.0000	92.1096
960.0000	92.095
958.0000	91.9155
956.0000	91.9189
954.0000	92.0464
952.0000	92.195
950.0000	92.009
948.0000	92.0178
946.0000	92.0034
944.0000	91.9005
942.0000	91.8755
940.0000	91.9706
938.0000	91.937
936.0000	91.8456
934.0000	91.8455
932.0000	91.9897
930.0000	91.9523
928.0000	91.8654
926.0000	91.8585
924.0000	91.9543
922.0000	91.9076
920.0000	91.8924
918.0000	91.8473
916.0000	91.7893
914.0000	91.7484
912.0000	91.762
910.0000	91.9095
908.0000	91.9914
906.0000	91.9477
904.0000	91.8282
902.0000	91.7021
900.0000	91.7491
898.0000	91.7606
896.0000	91.9189
894.0000	91.7011
892.0000	91.8525
890.0000	91.8071
888.0000	91.704
886.0000	91.5741
884.0000	91.4509
882.0000	91.6917
880.0000	91.9218
878.0000	91.698
876.0000	91.7336
874.0000	91.768
872.0000	91.738
870.0000	91.3049
868.0000	91.9292
866.0000	92.0853
864.0000	91.6076
862.0000	91.8897
860.0000	91.1668
858.0000	91.3699
856.0000	92.0508
854.0000	91.3118
852.0000	91.9196
850.0000	91.9906
848.0000	92.2899
846.0000	92.1423
844.0000	91.7793
842.0000	92.6317
840.0000	91.7159
838.0000	92.2273
836.0000	91.961
834.0000	92.9604
832.0000	92.1172
830.0000	91.6335
828.0000	92.2033
826.0000	91.9118
824.0000	91.1949
822.0000	92.1438
820.0000	92.0877
818.0000	92.0451
816.0000	91.6512
814.0000	91.9608
812.0000	91.1403
810.0000	91.4364
808.0000	92.1272
806.0000	92.5113
804.0000	91.7113
802.0000	91.73
800.0000	92.1077
798.0000	92.4208
796.0000	91.6725
794.0000	91.8515
792.0000	91.341
790.0000	91.2324
788.0000	92.0164
786.0000	92.4293
784.0000	91.8355
782.0000	91.5384
780.0000	92.3231
778.0000	91.9783
776.0000	91.7441
774.0000	91.2152
772.0000	92.0047
770.0000	92.2128
768.0000	91.8979
766.0000	91.6927
764.0000	92.1065
762.0000	91.9099
760.0000	91.2946
758.0000	92.0715
756.0000	92.1757
754.0000	91.9181
752.0000	91.9266
750.0000	92.1046
748.0000	91.9043
746.0000	91.9473
744.0000	91.6199
742.0000	91.9402
740.0000	92.1679
738.0000	91.5664
736.0000	91.768
734.0000	91.3786
732.0000	92.0992
730.0000	91.802
728.0000	91.7013
726.0000	92.3187
724.0000	92.1874
722.0000	91.7756
720.0000	91.5321
718.0000	91.4503
716.0000	91.6753
714.0000	91.5398
712.0000	91.6829
710.0000	91.6018
708.0000	91.4546
706.0000	91.9702
704.0000	91.9559
702.0000	91.7746
700.0000	91.6572
698.0000	91.8299
696.0000	91.6199
694.0000	91.6066
692.0000	91.6054
690.0000	91.741
688.0000	91.602
686.0000	92.0543
684.0000	91.9647
682.0000	91.5504
680.0000	91.6187
678.0000	92.0781
676.0000	91.869
674.0000	91.9109
672.0000	91.8206
670.0000	91.4071
668.0000	91.8831
666.0000	91.7399
664.0000	91.4414
662.0000	91.7428
660.0000	91.8956
658.0000	91.9118
656.0000	91.8497
654.0000	91.68
652.0000	91.2881
650.0000	91.7091
648.0000	91.693
646.0000	91.4034
644.0000	91.689
642.0000	91.7237
640.0000	91.5122
638.0000	91.8949
636.0000	91.6761
634.0000	91.7678
632.0000	91.7604
630.0000	91.5097
628.0000	91.7846
626.0000	91.5328
624.0000	91.7269
622.0000	91.4208
620.0000	91.3834
618.0000	91.5752
616.0000	91.6953
614.0000	91.4837
612.0000	91.7152
610.0000	91.3925
608.0000	91.7604
606.0000	91.8266
604.0000	91.5241
602.0000	91.5887
600.0000	91.6919
598.0000	91.6702
596.0000	91.8112
594.0000	91.5597
592.0000	91.8784
590.0000	91.8384
588.0000	91.7076
586.0000	91.7284
584.0000	91.9605
582.0000	91.5163
580.0000	91.4907
578.0000	91.6612
576.0000	91.4648
574.0000	91.7086
572.0000	91.5423
570.0000	91.4635
568.0000	91.6643
566.0000	91.709
564.0000	91.7377
562.0000	91.5208
560.0000	91.7326
558.0000	91.5953
556.0000	91.3336
554.0000	91.3743
552.0000	91.5813
550.0000	91.3532
548.0000	91.6824
546.0000	91.2802
544.0000	91.5117
542.0000	91.5313
540.0000	91.2083
538.0000	91.5093
536.0000	91.3082
534.0000	91.6373
532.0000	91.485
530.0000	91.4512
528.0000	91.8301
526.0000	91.3799
524.0000	91.8202
522.0000	91.5067
520.0000	91.371
518.0000	91.3684
516.0000	90.8786
514.0000	91.7819
512.0000	91.5377
510.0000	90.7629
508.0000	91.265
506.0000	91.4373
504.0000	90.9944
502.0000	91.7823
500.0000	91.4408
498.0000	91.682
496.0000	91.5521
494.0000	91.5852
492.0000	91.2335
490.0000	91.2732
488.0000	91.1893
486.0000	90.9168
484.0000	91.1595
482.0000	91.3923
480.0000	91.2482
478.0000	90.8894
476.0000	91.2681
474.0000	90.6339
472.0000	91.3487
470.0000	91.195
468.0000	91.502
466.0000	91.3305
464.0000	91.1404
462.0000	91.4645
460.0000	91.0351
458.0000	91.4056
456.0000	91.2626
454.0000	90.8674
452.0000	90.8589
450.0000	91.1908
448.0000	91.0871
446.0000	90.9641
444.0000	90.9879
442.0000	91.153
440.0000	91.5044
438.0000	91.0936
436.0000	90.9004
434.0000	90.7457
432.0000	90.9372
430.0000	90.7385
428.0000	91.1676
426.0000	90.8053
424.0000	90.9826
422.0000	91.1204
420.0000	91.2906
418.0000	90.7109
416.0000	90.9988
414.0000	90.7687
412.0000	90.5801
410.0000	90.2283
408.0000	90.5081
406.0000	90.7819
404.0000	90.8716
402.0000	90.2524
400.0000	90.646
398.0000	90.2449
396.0000	90.6727
394.0000	91.1158
392.0000	91.3285
390.0000	91.402
388.0000	90.9752
386.0000	90.4686
384.0000	90.7107
382.0000	91.0109
380.0000	91.6351
378.0000	91.1745
376.0000	90.4509
374.0000	90.8546
372.0000	90.4831
370.0000	89.8575
368.0000	90.683
366.0000	91.0938
364.0000	91.0069
362.0000	89.1513
360.0000	89.8612
358.0000	89.4052
356.0000	92.8282
354.0000	90.9686
352.0000	88.7106
350.0000	88.38
348.0000	87.6936
346.0000	87.2556
344.0000	88.3531
342.0000	87.093
340.0000	86.6844
338.0000	85.2375
336.0000	85.5538
334.0000	81.587
332.0000	83.6644
330.0000	83.4483
328.0000	77.1343
326.0000	75.2627
324.0000	70.0591
322.0000	68.2918
320.0000	62.6281
318.0000	58.3693
316.0000	53.9853
314.0000	46.9668
312.0000	39.4266
310.0000	33.1815
308.0000	26.3491
306.0000	20.1484
304.0000	14.9621
302.0000	10.198
300.0000	7.20507
